<Actel_Data_File>
    <format name="NVM File" version="01.00.00"/>
    <header>
        <die>
            M2S010
        </die>
        <family>
            SmartFusion2
        </family>
        <module>
            
        </module>
        <package>
            484 FBGA
        </package>
        <version>
            11.5.3.10
        </version>
    </header>
    <nvm>
        <region name="myapp" address="0x000000" retrieveAddressFromFile="false" size="3520" format="HEX" type="Data Storage" wordSize="32" numberWords="880" memFile="" memType="" memFileTimeStamp="1436922592" clientType="public" program="false">
            000000000000000000000000000000000000000000000000000000000000
            000000000000000000000000000000000000000000000000000000000000
            000000000000000000000000000000000000000000000000000000000000
            000000000000000000000000000000000000000000000000000000000000
            000000000000000000000000000000000000000000000000000000000000
            000000000000000000000000000000000000000000000000000000000000
            000000000000000000000000000000000000000000000000000000000000
            000000000000000000000000000000000000000000000000000000000000
            000000000000000000000000000000000000000000000000000000000000
            000000000000000000000000000000000000000000000000000000000000
            000000000000000000000000000000000000000000000000000000000000
            000000000000000000000000000000000000000000000000000000000000
            000000000000000000000000000000000000000000000000000000000000
            000000000000000000000000000000000000000000000000000000000000
            000000000000000000000000000000000000000000000000000000000000
            000000000000000000000000000000000000000000000000000000000000
            000000000000000000000000000000000000000000000000000000000000
            000000000000000000000000000000000000000000000000000000000000
            000000000000000000000000000000000000000000000000000000000000
            000000000000000000000000000000000000000000000000000000000000
            000000000000000000000000000000000000000000000000000000000000
            000000000000000000000000000000000000000000000000000000000000
            000000000000000000000000000000000000000000000000000000000000
            000000000000000000000000000000000000000000000000000000000000
            000000000000000000000000000000000000000000000000000000000000
            000000000000000000000000000000000000000000000000000000000000
            000000000000000000000000000000000000000000000000000000000000
            000000000000000000000000000000000000000000000000000000000000
            000000000000000000000000000000000000000000000000000000000000
            000000000000000000000000000000000000000000000000000000000000
            000000000000000000000000000000000000000000000000000000000000
            000000000000000000000000000000000000000000000000000000000000
            000000000000000000000000000000000000000000000000000000000000
            000000000000000000000000000000000000000000000000000000000000
            000000000000000000000000000000000000000000000000000000000000
            000000000000000000000000000000000000000000000000000000000000
            000000000000000000000000000000000000000000000000000000000000
            000000000000000000000000000000000000000000000000000000000000
            000000000000000000000000000000000000000000000000000000000000
            000000000000000000000000000000000000000000000000000000000000
            000000000000000000000000000000000000000000000000000000000000
            000000000000000000000000000000000000000000000000000000000000
            000000000000000000000000000000000000000000000000000000000000
            000000000000000000000000000000000000000000000000000000000000
            000000000000000000000000000000000000000000000000000000000000
            000000000000000000000000000000000000000000000000000000000000
            000000000000000000000000000000000000000000000000000000000000
            000000000000000000000000000000000000000000000000000000000000
            000000000000000000000000000000000000000000000000000000000000
            000000000000000000000000000000000000000000000000000000000000
            000000000000000000000000000000000000000000000000000000000000
            000000000000000000000000000000000000000000000000000000000000
            000000000000000000000000000000000000000000000000000000000000
            000000000000000000000000000000000000000000000000000000000000
            000000000000000000000000000000000000000000000000000000000000
            000000000000000000000000000000000000000000000000000000000000
            000000000000000000000000000000000000000000000000000000000000
            000000000000000000000000000000000000000000000000000000000000
            000000000000000000000000000000000000000000000000000000000000
            000000000000000000000000000000000000000000000000000000000000
            000000000000000000000000000000000000000000000000000000000000
            000000000000000000000000000000000000000000000000000000000000
            000000000000000000000000000000000000000000000000000000000000
            000000000000000000000000000000000000000000000000000000000000
            000000000000000000000000000000000000000000000000000000000000
            000000000000000000000000000000000000000000000000000000000000
            000000000000000000000000000000000000000000000000000000000000
            000000000000000000000000000000000000000000000000000000000000
            000000000000000000000000000000000000000000000000000000000000
            000000000000000000000000000000000000000000000000000000000000
            000000000000000000000000000000000000000000000000000000000000
            000000000000000000000000000000000000000000000000000000000000
            000000000000000000000000000000000000000000000000000000000000
            000000000000000000000000000000000000000000000000000000000000
            000000000000000000000000000000000000000000000000000000000000
            000000000000000000000000000000000000000000000000000000000000
            000000000000000000000000000000000000000000000000000000000000
            000000000000000000000000000000000000000000000000000000000000
            000000000000000000000000000000000000000000000000000000000000
            000000000000000000000000000000000000000000000000000000000000
            000000000000000000000000000000000000000000000000000000000000
            000000000000000000000000000000000000000000000000000000000000
            000000000000000000000000000000000000000000000000000000000000
            000000000000000000000000000000000000000000000000000000000000
            000000000000000000000000000000000000000000000000000000000000
            000000000000000000000000000000000000000000000000000000000000
            000000000000000000000000000000000000000000000000000000000000
            000000000000000000000000000000000000000000000000000000000000
            000000000000000000000000000000000000000000000000000000000000
            000000000000000000000000000000000000000000000000000000000000
            000000000000000000000000000000000000000000000000000000000000
            000000000000000000000000000000000000000000000000000000000000
            000000000000000000000000000000000000000000000000000000000000
            000000000000000000000000000000000000000000000000000000000000
            000000000000000000000000000000000000000000000000000000000000
            000000000000000000000000000000000000000000000000000000000000
            000000000000000000000000000000000000000000000000000000000000
            000000000000000000000000000000000000000000000000000000000000
            000000000000000000000000000000000000000000000000000000000000
            000000000000000000000000000000000000000000000000000000000000
            000000000000000000000000000000000000000000000000000000000000
            000000000000000000000000000000000000000000000000000000000000
            000000000000000000000000000000000000000000000000000000000000
            000000000000000000000000000000000000000000000000000000000000
            000000000000000000000000000000000000000000000000000000000000
            000000000000000000000000000000000000000000000000000000000000
            000000000000000000000000000000000000000000000000000000000000
            000000000000000000000000000000000000000000000000000000000000
            000000000000000000000000000000000000000000000000000000000000
            000000000000000000000000000000000000000000000000000000000000
            000000000000000000000000000000000000000000000000000000000000
            000000000000000000000000000000000000000000000000000000000000
            000000000000000000000000000000000000000000000000000000000000
            000000000000000000000000000000000000000000000000000000000000
            000000000000000000000000000000000000000000000000000000000000
            000000000000000000000000000000000000000000000000000000000000
            000000000000000000000000000000000000000000000000000000000000
            00000000000000000000
            <crc>
                0000
            </crc>
        </region>
    </nvm>
</Actel_Data_File>
